Scan;Index;Time (s);WE(1).Potential (V);WE(1).Current (A)
1;1;6.45035098371443;-0.19598388671875;1.2457275390625E-07
1;2;6.45307098370756;-0.190582275390625;1.28997802734375E-07
1;3;6.45579098370069;-0.1851806640625;1.2994384765625E-07
1;4;6.45851098369383;-0.1798095703125;1.30706787109375E-07
1;5;6.46123098368696;-0.174407958984375;1.3629150390625E-07
1;6;6.46395098368009;-0.16900634765625;1.343994140625E-07
1;7;6.46667098367323;-0.16363525390625;1.36749267578125E-07
1;8;6.46939098366636;-0.158233642578125;1.39495849609375E-07
1;9;6.47211098365949;-0.15283203125;1.39862060546875E-07
1;10;6.47483098365262;-0.147430419921875;1.42120361328125E-07
1;11;6.47755098364576;-0.142059326171875;1.46759033203125E-07
1;12;6.48027098363889;-0.13665771484375;1.4788818359375E-07
1;13;6.48299098363202;-0.13128662109375;1.48223876953125E-07
1;14;6.48571098362515;-0.12591552734375;1.549072265625E-07
1;15;6.48843098361829;-0.1204833984375;1.56280517578125E-07
1;16;6.49115098361142;-0.115081787109375;1.6131591796875E-07
1;17;6.49387098360455;-0.109710693359375;1.661376953125E-07
1;18;6.49659098359768;-0.10430908203125;1.715087890625E-07
1;19;6.49931098359082;-0.0989990234375;1.77520751953125E-07
1;20;6.50203098358395;-0.093597412109375;1.859130859375E-07
1;21;6.50475098357708;-0.08819580078125;1.9451904296875E-07
1;22;6.50747098357022;-0.08282470703125;2.064208984375E-07
1;23;6.51019098356335;-0.07745361328125;2.20672607421875E-07
1;24;6.51291098355648;-0.072052001953125;2.3638916015625E-07
1;25;6.51563098354961;-0.066680908203125;2.5494384765625E-07
1;26;6.51835098354275;-0.061279296875;2.78900146484375E-07
1;27;6.52107098353588;-0.055877685546875;3.106689453125E-07
1;28;6.52379098352901;-0.05047607421875;3.4912109375E-07
1;29;6.52651098352214;-0.0451019287109375;3.92333984375E-07
1;30;6.52923098351528;-0.0397308349609375;4.48577880859375E-07
1;31;6.53195098350841;-0.0343536376953125;5.16357421875E-07
1;32;6.53467098350154;-0.02896728515625;5.9722900390625E-07
1;33;6.53739098349467;-0.0235992431640625;6.9061279296875E-07
1;34;6.54011098348781;-0.018206787109375;8.154296875E-07
1;35;6.54283098348094;-0.0128082275390625;9.58251953125E-07
1;36;6.54555098347407;-0.0074462890625;1.1322021484375E-06
1;37;6.54827098346721;-0.00206298828125;1.3458251953125E-06
1;38;6.55099098346034;0.0033416748046875;1.60003662109375E-06
1;39;6.55371098345347;0.008685302734375;1.904296875E-06
1;40;6.5564309834466;0.014068603515625;2.254638671875E-06
1;41;6.55915098343974;0.0194732666015625;2.6861572265625E-06
1;42;6.56187098343287;0.0248138427734375;3.17108154296875E-06
1;43;6.564590983426;0.0302947998046875;3.74298095703125E-06
1;44;6.56731098341913;0.0356903076171875;4.38568115234375E-06
1;45;6.57003098341227;0.0410675048828125;5.1422119140625E-06
1;46;6.5727509834054;0.0464599609375;5.975341796875E-06
1;47;6.57547098339853;0.051910400390625;6.890869140625E-06
1;48;6.57819098339166;0.057281494140625;7.8948974609375E-06
1;49;6.5809109833848;0.062713623046875;8.9874267578125E-06
1;50;6.58363098337793;0.068084716796875;1.014404296875E-05
1;51;6.58635098337106;0.073455810546875;1.13372802734375E-05
1;52;6.58907098336419;0.078857421875;1.25823974609375E-05
1;53;6.59179098335733;0.084228515625;1.38092041015625E-05
1;54;6.59451098335046;0.089630126953125;1.50390625E-05
1;55;6.59723098334359;0.095001220703125;1.6217041015625E-05
1;56;6.59995098333673;0.10040283203125;1.7340087890625E-05
1;57;6.60267098332986;0.1058349609375;1.83319091796875E-05
1;58;6.60539098332299;0.111236572265625;1.922607421875E-05
1;59;6.60811098331612;0.11663818359375;1.9970703125E-05
1;60;6.61083098330926;0.121978759765625;2.05322265625E-05
1;61;6.61355098330239;0.127410888671875;2.0916748046875E-05
1;62;6.61627098329552;0.132781982421875;2.1099853515625E-05
1;63;6.61899098328865;0.13818359375;2.1136474609375E-05
1;64;6.62171098328179;0.14361572265625;2.09930419921875E-05
1;65;6.62443098327492;0.148956298828125;2.071533203125E-05
1;66;6.62715098326805;0.15435791015625;2.03277587890625E-05
1;67;6.62987098326118;0.159759521484375;1.98516845703125E-05
1;68;6.63259098325432;0.165130615234375;1.93145751953125E-05
1;69;6.63531098324745;0.1705322265625;1.87591552734375E-05
1;70;6.63803098324058;0.175933837890625;1.81976318359375E-05
1;71;6.64075098323372;0.181304931640625;1.763916015625E-05
1;72;6.64347098322685;0.18670654296875;1.7083740234375E-05
1;73;6.64619098321998;0.192108154296875;1.6552734375E-05
1;74;6.64891098321311;0.197479248046875;1.605224609375E-05
1;75;6.65163098320625;0.202850341796875;1.5576171875E-05
1;76;6.65435098319938;0.208282470703125;1.51336669921875E-05
1;77;6.65707098319251;0.213623046875;1.47247314453125E-05
1;78;6.65979098318564;0.21905517578125;1.4337158203125E-05
1;79;6.66251098317878;0.22442626953125;1.397705078125E-05
1;80;6.66523098317191;0.22979736328125;1.36383056640625E-05
1;81;6.66795098316504;0.23516845703125;1.33270263671875E-05
1;82;6.67067098315817;0.2406005859375;1.30401611328125E-05
1;83;6.67339098315131;0.2459716796875;1.27593994140625E-05
1;84;6.67611098314444;0.251373291015625;1.251220703125E-05
1;85;6.67883098313757;0.256805419921875;1.22711181640625E-05
1;86;6.68155098313071;0.26214599609375;1.2042236328125E-05
1;87;6.68427098312384;0.267547607421875;1.1834716796875E-05
1;88;6.68699098311697;0.27294921875;1.1627197265625E-05
1;89;6.6897109831101;0.278289794921875;1.14501953125E-05
1;90;6.69243098310324;0.283721923828125;1.12640380859375E-05
1;91;6.69515098309637;0.289093017578125;1.1090087890625E-05
1;92;6.6978709830895;0.29449462890625;1.0943603515625E-05
1;93;6.70059098308263;0.299896240234375;1.0784912109375E-05
1;94;6.70331098307577;0.30523681640625;1.064453125E-05
1;95;6.7060309830689;0.3106689453125;1.0504150390625E-05
1;96;6.70875098306203;0.3160400390625;1.03790283203125E-05
1;97;6.71147098305516;0.3214111328125;1.024169921875E-05
1;98;6.7141909830483;0.32684326171875;1.01287841796875E-05
1;99;6.71691098304143;0.332183837890625;1.0003662109375E-05
1;100;6.71963098303456;0.33758544921875;9.8968505859375E-06
1;101;6.7223509830277;0.342987060546875;9.7991943359375E-06
1;102;6.72507098302083;0.348358154296875;9.6893310546875E-06
1;103;6.72779098301396;0.353759765625;9.5916748046875E-06
1;104;6.73051098300709;0.359161376953125;9.4940185546875E-06
1;105;6.73323098300023;0.36456298828125;9.4024658203125E-06
1;106;6.73595098299336;0.369964599609375;9.3109130859375E-06
1;107;6.73867098298649;0.3753662109375;9.2315673828125E-06
1;108;6.74139098297962;0.3807373046875;9.14306640625E-06
1;109;6.74411098297276;0.3861083984375;9.063720703125E-06
1;110;6.74683098296589;0.391510009765625;8.9935302734375E-06
1;111;6.74955098295902;0.391204833984375;8.551025390625E-06
1;112;6.75227098295215;0.38580322265625;8.45947265625E-06
1;113;6.75499098294529;0.380401611328125;8.3587646484375E-06
1;114;6.75771098293842;0.375;8.2794189453125E-06
1;115;6.76043098293155;0.36962890625;8.19091796875E-06
1;116;6.76315098292469;0.364227294921875;8.1268310546875E-06
1;117;6.76587098291782;0.35882568359375;8.04443359375E-06
1;118;6.76859098291095;0.35345458984375;7.977294921875E-06
1;119;6.77131098290408;0.348052978515625;7.904052734375E-06
1;120;6.77403098289722;0.3426513671875;7.8399658203125E-06
1;121;6.77675098289035;0.3372802734375;7.7667236328125E-06
1;122;6.77947098288348;0.33184814453125;7.6995849609375E-06
1;123;6.78219098287661;0.326507568359375;7.647705078125E-06
1;124;6.78491098286975;0.32110595703125;7.5836181640625E-06
1;125;6.78763098286288;0.315673828125;7.5164794921875E-06
1;126;6.79035098285601;0.310302734375;7.470703125E-06
1;127;6.79307098284914;0.304901123046875;7.3974609375E-06
1;128;6.79579098284228;0.29949951171875;7.3486328125E-06
1;129;6.79851098283541;0.29412841796875;7.2906494140625E-06
1;130;6.80123098282854;0.28875732421875;7.2418212890625E-06
1;131;6.80395098282168;0.283355712890625;7.1807861328125E-06
1;132;6.80667098281481;0.2779541015625;7.1197509765625E-06
1;133;6.80939098280794;0.2725830078125;7.06787109375E-06
1;134;6.81211098280107;0.26715087890625;6.9976806640625E-06
1;135;6.81483098279421;0.261810302734375;6.9488525390625E-06
1;136;6.81755098278734;0.25640869140625;6.8817138671875E-06
1;137;6.82027098278047;0.251007080078125;6.82373046875E-06
1;138;6.8229909827736;0.24560546875;6.75048828125E-06
1;139;6.82571098276674;0.240234375;6.67724609375E-06
1;140;6.82843098275987;0.234832763671875;6.5948486328125E-06
1;141;6.831150982753;0.22943115234375;6.5032958984375E-06
1;142;6.83387098274613;0.22406005859375;6.40869140625E-06
1;143;6.83659098273927;0.218658447265625;6.2957763671875E-06
1;144;6.8393109827324;0.2132568359375;6.170654296875E-06
1;145;6.84203098272553;0.2078857421875;6.0302734375E-06
1;146;6.84475098271867;0.202484130859375;5.877685546875E-06
1;147;6.8474709827118;0.197113037109375;5.682373046875E-06
1;148;6.85019098270493;0.19171142578125;5.4534912109375E-06
1;149;6.85291098269806;0.186309814453125;5.2001953125E-06
1;150;6.8556309826912;0.180908203125;4.9053955078125E-06
1;151;6.85835098268433;0.175537109375;4.5489501953125E-06
1;152;6.86107098267746;0.170135498046875;4.150390625E-06
1;153;6.86379098267059;0.164764404296875;3.67156982421875E-06
1;154;6.86651098266373;0.159393310546875;3.1317138671875E-06
1;155;6.86923098265686;0.153961181640625;2.498779296875E-06
1;156;6.87195098264999;0.148590087890625;1.8023681640625E-06
1;157;6.87467098264312;0.143218994140625;1.01837158203125E-06
1;158;6.87739098263626;0.137786865234375;1.36016845703125E-07
1;159;6.88011098262939;0.132415771484375;-8.4228515625E-07
1;160;6.88283098262252;0.127044677734375;-1.9012451171875E-06
1;161;6.88555098261565;0.121612548828125;-3.03070068359375E-06
1;162;6.88827098260879;0.116241455078125;-4.21844482421875E-06
1;163;6.89099098260192;0.110870361328125;-5.46875E-06
1;164;6.89371098259505;0.10546875;-6.7413330078125E-06
1;165;6.89643098258819;0.10009765625;-8.0078125E-06
1;166;6.89915098258132;0.0947265625;-9.246826171875E-06
1;167;6.90187098257445;0.089324951171875;-1.044921875E-05
1;168;6.90459098256758;0.083953857421875;-1.1578369140625E-05
1;169;6.90731098256072;0.07855224609375;-1.25762939453125E-05
1;170;6.91003098255385;0.073150634765625;-1.34613037109375E-05
1;171;6.91275098254698;0.067779541015625;-1.41845703125E-05
1;172;6.91547098254011;0.062408447265625;-1.47369384765625E-05
1;173;6.91819098253325;0.056976318359375;-1.50909423828125E-05
1;174;6.92091098252638;0.0516357421875;-1.5264892578125E-05
1;175;6.92363098251951;0.0462188720703125;-1.5264892578125E-05
1;176;6.92635098251264;0.0408233642578125;-1.5106201171875E-05
1;177;6.92907098250578;0.03544921875;-1.48040771484375E-05
1;178;6.93179098249891;0.0300506591796875;-1.44134521484375E-05
1;179;6.93451098249204;0.0246337890625;-1.3922119140625E-05
1;180;6.93723098248518;0.0192657470703125;-1.339111328125E-05
1;181;6.93995098247831;0.01387939453125;-1.2835693359375E-05
1;182;6.94267098247144;0.00847473144531249;-1.2274169921875E-05
1;183;6.94539098246457;0.00309143066406251;-1.17279052734375E-05
1;184;6.94811098245771;-0.0022918701171875;-1.11785888671875E-05
1;185;6.95083098245084;-0.00770263671875;-1.06658935546875E-05
1;186;6.95355098244397;-0.0130859375;-1.019287109375E-05
1;187;6.9562709824371;-0.0184661865234375;-9.735107421875E-06
1;188;6.95899098243024;-0.0238800048828125;-9.307861328125E-06
1;189;6.96171098242337;-0.0292388916015625;-8.92333984375E-06
1;190;6.9644309824165;-0.0346466064453125;-8.55712890625E-06
1;191;6.96715098240963;-0.0400421142578125;-8.21533203125E-06
1;192;6.96987098240277;-0.04542236328125;-7.9010009765625E-06
1;193;6.9725909823959;-0.050811767578125;-7.60498046875E-06
1;194;6.97531098238903;-0.056243896484375;-7.330322265625E-06
1;195;6.97803098238217;-0.061614990234375;-7.073974609375E-06
1;196;6.9807509823753;-0.066986083984375;-6.842041015625E-06
1;197;6.98347098236843;-0.072418212890625;-6.6162109375E-06
1;198;6.98619098236156;-0.0777587890625;-6.40869140625E-06
1;199;6.9889109823547;-0.083160400390625;-6.2164306640625E-06
1;200;6.99163098234783;-0.088592529296875;-6.0302734375E-06
1;201;6.99435098234096;-0.093963623046875;-5.859375E-06
1;202;6.99707098233409;-0.099365234375;-5.70068359375E-06
1;203;6.99979098232723;-0.104766845703125;-5.5450439453125E-06
1;204;7.00251098232036;-0.11016845703125;-5.3924560546875E-06
1;205;7.00523098231349;-0.115570068359375;-5.26123046875E-06
1;206;7.00795098230662;-0.120941162109375;-5.1361083984375E-06
1;207;7.01067098229976;-0.1263427734375;-5.01708984375E-06
1;208;7.01339098229289;-0.131744384765625;-4.891357421875E-06
1;209;7.01611098228602;-0.137115478515625;-4.77691650390625E-06
1;210;7.01883098227916;-0.142486572265625;-4.67376708984375E-06
1;211;7.02155098227229;-0.147918701171875;-4.5806884765625E-06
1;212;7.02427098226542;-0.153289794921875;-4.478759765625E-06
1;213;7.02699098225855;-0.158660888671875;-4.38629150390625E-06
1;214;7.02971098225169;-0.164093017578125;-4.2962646484375E-06
1;215;7.03243098224482;-0.169464111328125;-4.2095947265625E-06
1;216;7.03515098223795;-0.174835205078125;-4.13055419921875E-06
1;217;7.03787098223108;-0.180267333984375;-4.05303955078125E-06
1;218;7.04059098222422;-0.185638427734375;-3.975830078125E-06
1;219;7.04331098221735;-0.1910400390625;-3.90777587890625E-06
1;220;7.04603098221048;-0.196441650390625;-3.83331298828125E-06
1;221;7.04875098220361;-0.201812744140625;-3.7646484375E-06
1;222;7.05147098219675;-0.20721435546875;-3.70147705078125E-06
1;223;7.05419098218988;-0.212615966796875;-3.6358642578125E-06
1;224;7.05691098218301;-0.217987060546875;-3.5748291015625E-06
1;225;7.05963098217615;-0.223388671875;-3.519287109375E-06
1;226;7.06235098216928;-0.228790283203125;-3.4637451171875E-06
1;227;7.06507098216241;-0.23419189453125;-3.4075927734375E-06
1;228;7.06779098215554;-0.23956298828125;-3.358154296875E-06
1;229;7.07051098214868;-0.2449951171875;-3.30535888671875E-06
1;230;7.07323098214181;-0.2503662109375;-3.25592041015625E-06
1;231;7.07595098213494;-0.2557373046875;-3.2098388671875E-06
1;232;7.07867098212807;-0.26116943359375;-3.16436767578125E-06
1;233;7.08139098212121;-0.26654052734375;-3.12225341796875E-06
1;234;7.08411098211434;-0.27191162109375;-3.076171875E-06
1;235;7.08683098210747;-0.27728271484375;-3.03466796875E-06
1;236;7.0895509821006;-0.28271484375;-2.99468994140625E-06
1;237;7.09227098209374;-0.2880859375;-2.95654296875E-06
1;238;7.09499098208687;-0.293487548828125;-2.91839599609375E-06
1;239;7.09771098208;-0.29888916015625;-2.8790283203125E-06
1;240;7.10043098207314;-0.297271728515625;-2.56805419921875E-06
1;241;7.10315098206627;-0.2918701171875;-2.5103759765625E-06
1;242;7.1058709820594;-0.2864990234375;-2.46612548828125E-06
1;243;7.10859098205253;-0.28106689453125;-2.423095703125E-06
1;244;7.11131098204567;-0.275665283203125;-2.38616943359375E-06
1;245;7.1140309820388;-0.27032470703125;-2.34375E-06
1;246;7.11675098203193;-0.264923095703125;-2.30621337890625E-06
1;247;7.11947098202506;-0.259490966796875;-2.2674560546875E-06
1;248;7.1221909820182;-0.254119873046875;-2.23602294921875E-06
1;249;7.12491098201133;-0.24871826171875;-2.2003173828125E-06
1;250;7.12763098200446;-0.243316650390625;-2.17041015625E-06
1;251;7.13035098199759;-0.2379150390625;-2.1392822265625E-06
1;252;7.13307098199073;-0.2325439453125;-2.1124267578125E-06
1;253;7.13579098198386;-0.22711181640625;-2.07733154296875E-06
1;254;7.13851098197699;-0.22174072265625;-2.049560546875E-06
1;255;7.14123098197013;-0.216339111328125;-2.0196533203125E-06
1;256;7.14395098196326;-0.2109375;-1.9903564453125E-06
1;257;7.14667098195639;-0.20556640625;-1.9635009765625E-06
1;258;7.14939098194952;-0.200164794921875;-1.93634033203125E-06
2;259;7.15211098194266;-0.19476318359375;-1.912841796875E-06
2;260;7.15483098193579;-0.18939208984375;-1.88812255859375E-06
2;261;7.15755098192892;-0.183990478515625;-1.8646240234375E-06
2;262;7.16027098192205;-0.1785888671875;-1.8402099609375E-06
2;263;7.16299098191519;-0.1732177734375;-1.81976318359375E-06
2;264;7.16571098190832;-0.167816162109375;-1.78497314453125E-06
2;265;7.16843098190145;-0.162384033203125;-1.77001953125E-06
2;266;7.17115098189458;-0.157012939453125;-1.7462158203125E-06
2;267;7.17387098188772;-0.151641845703125;-1.7242431640625E-06
2;268;7.17659098188085;-0.146209716796875;-1.70135498046875E-06
2;269;7.17931098187398;-0.140838623046875;-1.68304443359375E-06
2;270;7.18203098186711;-0.135467529296875;-1.656494140625E-06
2;271;7.18475098186025;-0.130096435546875;-1.6363525390625E-06
2;272;7.18747098185338;-0.124664306640625;-1.61163330078125E-06
2;273;7.19019098184651;-0.1192626953125;-1.59210205078125E-06
2;274;7.19291098183965;-0.113861083984375;-1.56768798828125E-06
2;275;7.19563098183278;-0.108489990234375;-1.54693603515625E-06
2;276;7.19835098182591;-0.103118896484375;-1.52252197265625E-06
2;277;7.20107098181904;-0.097747802734375;-1.50054931640625E-06
2;278;7.20379098181218;-0.092315673828125;-1.47552490234375E-06
2;279;7.20651098180531;-0.086944580078125;-1.44805908203125E-06
2;280;7.20923098179844;-0.08154296875;-1.417236328125E-06
2;281;7.21195098179157;-0.076202392578125;-1.38397216796875E-06
2;282;7.21467098178471;-0.070770263671875;-1.353759765625E-06
2;283;7.21739098177784;-0.065399169921875;-1.31805419921875E-06
2;284;7.22011098177097;-0.05999755859375;-1.27349853515625E-06
2;285;7.2228309817641;-0.054595947265625;-1.22711181640625E-06
2;286;7.22555098175724;-0.0492706298828125;-1.17523193359375E-06
2;287;7.22827098175037;-0.04390869140625;-1.10870361328125E-06
2;288;7.2309909817435;-0.03851318359375;-1.03485107421875E-06
2;289;7.23371098173664;-0.033111572265625;-9.5001220703125E-07
2;290;7.23643098172977;-0.027740478515625;-8.50830078125E-07
2;291;7.2391509817229;-0.022344970703125;-7.2967529296875E-07
2;292;7.24187098171603;-0.0169525146484375;-5.8563232421875E-07
2;293;7.24459098170917;-0.011566162109375;-4.202880859375E-07
2;294;7.2473109817023;-0.00618896484375001;-2.18963623046875E-07
2;295;7.25003098169543;-0.000796508789062497;2.15301513671875E-08
2;296;7.25275098168856;0.00458374023437499;3.05877685546875E-07
2;297;7.2554709816817;0.0099761962890625;6.4361572265625E-07
2;298;7.25819098167483;0.0153350830078125;1.029052734375E-06
2;299;7.26091098166796;0.020709228515625;1.49444580078125E-06
2;300;7.26363098166109;0.0261016845703125;2.02545166015625E-06
2;301;7.26635098165423;0.0314605712890625;2.64007568359375E-06
2;302;7.26907098164736;0.036810302734375;3.336181640625E-06
2;303;7.27179098164049;0.042291259765625;4.11956787109375E-06
2;304;7.27451098163363;0.04769287109375;4.98046875E-06
2;305;7.27723098162676;0.05316162109375;5.9600830078125E-06
2;306;7.27995098161989;0.058563232421875;7.0037841796875E-06
2;307;7.28267098161302;0.06396484375;8.11767578125E-06
2;308;7.28539098160616;0.0693359375;9.2987060546875E-06
2;309;7.28811098159929;0.07470703125;1.0528564453125E-05
2;310;7.29083098159242;0.080108642578125;1.1785888671875E-05
2;311;7.29355098158555;0.085479736328125;1.3037109375E-05
2;312;7.29627098157869;0.09088134765625;1.4263916015625E-05
2;313;7.29899098157182;0.09625244140625;1.54327392578125E-05
2;314;7.30171098156495;0.1016845703125;1.650390625E-05
2;315;7.30443098155808;0.10711669921875;1.7486572265625E-05
2;316;7.30715098155122;0.11248779296875;1.83319091796875E-05
2;317;7.30987098154435;0.11785888671875;1.90216064453125E-05
2;318;7.31259098153748;0.123291015625;1.95281982421875E-05
2;319;7.31531098153062;0.128662109375;1.98577880859375E-05
2;320;7.31803098152375;0.134033203125;2.00103759765625E-05
2;321;7.32075098151688;0.13946533203125;1.9976806640625E-05
2;322;7.32347098151001;0.14483642578125;1.97906494140625E-05
2;323;7.32619098150315;0.150238037109375;1.94793701171875E-05
2;324;7.32891098149628;0.155609130859375;1.90521240234375E-05
2;325;7.33163098148941;0.160980224609375;1.8572998046875E-05
2;326;7.33435098148254;0.166412353515625;1.80389404296875E-05
2;327;7.33707098147568;0.171783447265625;1.748046875E-05
2;328;7.33979098146881;0.17718505859375;1.69158935546875E-05
2;329;7.34251098146194;0.182586669921875;1.6357421875E-05
2;330;7.34523098145507;0.187957763671875;1.58203125E-05
2;331;7.34795098144821;0.193359375;1.53045654296875E-05
2;332;7.35067098144134;0.198760986328125;1.4825439453125E-05
2;333;7.35339098143447;0.204132080078125;1.43646240234375E-05
2;334;7.35611098142761;0.20953369140625;1.39434814453125E-05
2;335;7.35883098142074;0.21490478515625;1.353759765625E-05
2;336;7.36155098141387;0.220306396484375;1.317138671875E-05
2;337;7.364270981407;0.2257080078125;1.28326416015625E-05
2;338;7.36699098140014;0.2310791015625;1.251220703125E-05
2;339;7.36971098139327;0.236480712890625;1.2213134765625E-05
2;340;7.3724309813864;0.24188232421875;1.19293212890625E-05
2;341;7.37515098137953;0.24725341796875;1.1669921875E-05
2;342;7.37787098137267;0.252655029296875;1.14227294921875E-05
2;343;7.3805909813658;0.258026123046875;1.12030029296875E-05
2;344;7.38331098135893;0.263427734375;1.09771728515625E-05
2;345;7.38603098135206;0.268829345703125;1.07818603515625E-05
2;346;7.3887509813452;0.274200439453125;1.05926513671875E-05
2;347;7.39147098133833;0.27960205078125;1.041259765625E-05
2;348;7.39419098133146;0.285003662109375;1.0247802734375E-05
2;349;7.3969109813246;0.290374755859375;1.00830078125E-05
2;350;7.39963098131773;0.2957763671875;9.9395751953125E-06
2;351;7.40235098131086;0.3011474609375;9.7869873046875E-06
2;352;7.40507098130399;0.306549072265625;9.6527099609375E-06
2;353;7.40779098129713;0.311920166015625;9.521484375E-06
2;354;7.41051098129026;0.31732177734375;9.3963623046875E-06
2;355;7.41323098128339;0.32269287109375;9.2803955078125E-06
2;356;7.41595098127652;0.328125;9.16748046875E-06
2;357;7.41867098126966;0.33349609375;9.0576171875E-06
2;358;7.42139098126279;0.338897705078125;8.9599609375E-06
2;359;7.42411098125592;0.34429931640625;8.8531494140625E-06
2;360;7.42683098124905;0.34967041015625;8.758544921875E-06
2;361;7.42955098124219;0.35504150390625;8.6639404296875E-06
2;362;7.43227098123532;0.3604736328125;8.58154296875E-06
2;363;7.43499098122845;0.3658447265625;8.4991455078125E-06
2;364;7.43771098122158;0.371246337890625;8.41064453125E-06
2;365;7.44043098121472;0.37664794921875;8.3343505859375E-06
2;366;7.44315098120785;0.38201904296875;8.258056640625E-06
2;367;7.44587098120098;0.38739013671875;8.184814453125E-06
2;368;7.44859098119412;0.392822265625;8.11767578125E-06
2;369;7.45131098118725;0.390716552734375;7.6934814453125E-06
2;370;7.45403098118038;0.385345458984375;7.60498046875E-06
2;371;7.45675098117351;0.37994384765625;7.51953125E-06
2;372;7.45947098116665;0.374542236328125;7.4371337890625E-06
2;373;7.46219098115978;0.369140625;7.3699951171875E-06
2;374;7.46491098115291;0.363739013671875;7.293701171875E-06
2;375;7.46763098114604;0.358367919921875;7.2296142578125E-06
2;376;7.47035098113918;0.352996826171875;7.1685791015625E-06
2;377;7.47307098113231;0.347564697265625;7.1014404296875E-06
2;378;7.47579098112544;0.3421630859375;7.0465087890625E-06
2;379;7.47851098111857;0.3367919921875;6.976318359375E-06
2;380;7.48123098111171;0.331390380859375;6.9122314453125E-06
2;381;7.48395098110484;0.326019287109375;6.8634033203125E-06
2;382;7.48667098109797;0.32061767578125;6.8145751953125E-06
2;383;7.48939098109111;0.315216064453125;6.7535400390625E-06
2;384;7.49211098108424;0.309844970703125;6.6986083984375E-06
2;385;7.49483098107737;0.304412841796875;6.646728515625E-06
2;386;7.4975509810705;0.299041748046875;6.597900390625E-06
2;387;7.50027098106364;0.29364013671875;6.5460205078125E-06
2;388;7.50299098105677;0.288238525390625;6.4971923828125E-06
2;389;7.5057109810499;0.282867431640625;6.439208984375E-06
2;390;7.50843098104303;0.277496337890625;6.3873291015625E-06
2;391;7.51115098103617;0.272064208984375;6.3323974609375E-06
2;392;7.5138709810293;0.266693115234375;6.2774658203125E-06
2;393;7.51659098102243;0.26129150390625;6.219482421875E-06
2;394;7.51931098101556;0.25592041015625;6.170654296875E-06
2;395;7.5220309810087;0.250518798828125;6.1126708984375E-06
2;396;7.52475098100183;0.2451171875;6.0333251953125E-06
2;397;7.52747098099496;0.23974609375;5.9661865234375E-06
2;398;7.5301909809881;0.23431396484375;5.89599609375E-06
2;399;7.53291098098123;0.228973388671875;5.8074951171875E-06
2;400;7.53563098097436;0.22357177734375;5.7159423828125E-06
2;401;7.53835098096749;0.218170166015625;5.6060791015625E-06
2;402;7.54107098096063;0.212799072265625;5.4962158203125E-06
2;403;7.54379098095376;0.2073974609375;5.3497314453125E-06
2;404;7.54651098094689;0.201995849609375;5.1910400390625E-06
2;405;7.54923098094002;0.19659423828125;5.0018310546875E-06
2;406;7.55195098093316;0.19122314453125;4.78424072265625E-06
2;407;7.55467098092629;0.185821533203125;4.532470703125E-06
2;408;7.55739098091942;0.180419921875;4.2388916015625E-06
2;409;7.56011098091255;0.175048828125;3.89312744140625E-06
2;410;7.56283098090569;0.169647216796875;3.47747802734375E-06
2;411;7.56555098089882;0.164276123046875;3.01177978515625E-06
2;412;7.56827098089195;0.15887451171875;2.47711181640625E-06
2;413;7.57099098088509;0.153472900390625;1.85394287109375E-06
2;414;7.57371098087822;0.148101806640625;1.1431884765625E-06
2;415;7.57643098087135;0.142669677734375;3.55316162109375E-07
2;416;7.57915098086448;0.137298583984375;-5.17578125E-07
2;417;7.58187098085762;0.131927490234375;-1.4990234375E-06
2;418;7.58459098085075;0.12652587890625;-2.559814453125E-06
2;419;7.58731098084388;0.12109375;-3.6920166015625E-06
2;420;7.59003098083701;0.115753173828125;-4.8773193359375E-06
2;421;7.59275098083015;0.1103515625;-6.1279296875E-06
2;422;7.59547098082328;0.10491943359375;-7.3944091796875E-06
2;423;7.59819098081641;0.099578857421875;-8.673095703125E-06
2;424;7.60091098080954;0.094207763671875;-9.9029541015625E-06
2;425;7.60363098080268;0.08880615234375;-1.11053466796875E-05
2;426;7.60635098079581;0.083404541015625;-1.221923828125E-05
2;427;7.60907098078894;0.078033447265625;-1.32293701171875E-05
2;428;7.61179098078208;0.0726318359375;-1.4105224609375E-05
2;429;7.61451098077521;0.0672607421875;-1.4801025390625E-05
2;430;7.61723098076834;0.0618896484375;-1.53564453125E-05
2;431;7.61995098076147;0.056488037109375;-1.571044921875E-05
2;432;7.62267098075461;0.05108642578125;-1.5869140625E-05
2;433;7.62539098074774;0.045697021484375;-1.58660888671875E-05
2;434;7.62811098074087;0.0403076171875;-1.568603515625E-05
2;435;7.630830980734;0.034906005859375;-1.5374755859375E-05
2;436;7.63355098072714;0.0295196533203125;-1.497802734375E-05
2;437;7.63627098072027;0.0241302490234375;-1.448974609375E-05
2;438;7.6389909807134;0.0187347412109375;-1.3958740234375E-05
2;439;7.64171098070653;0.0133514404296875;-1.33941650390625E-05
2;440;7.64443098069967;0.00795898437500001;-1.282958984375E-05
2;441;7.6471509806928;0.00255126953125;-1.22772216796875E-05
2;442;7.64987098068593;-0.00283203125000001;-1.17401123046875E-05
2;443;7.65259098067907;-0.00821533203124999;-1.123046875E-05
2;444;7.6553109806722;-0.0136322021484375;-1.0748291015625E-05
2;445;7.65803098066533;-0.0190032958984375;-1.029052734375E-05
2;446;7.66075098065846;-0.0243804931640625;-9.8663330078125E-06
2;447;7.6634709806516;-0.0298065185546875;-9.4696044921875E-06
2;448;7.66619098064473;-0.03516845703125;-9.09423828125E-06
2;449;7.66891098063786;-0.0405670166015625;-8.75244140625E-06
2;450;7.67163098063099;-0.045965576171875;-8.441162109375E-06
2;451;7.67435098062413;-0.0513916015625;-8.1390380859375E-06
2;452;7.67707098061726;-0.0567626953125;-7.87353515625E-06
2;453;7.67979098061039;-0.062164306640625;-7.6141357421875E-06
2;454;7.68251098060352;-0.067535400390625;-7.373046875E-06
2;455;7.68523098059666;-0.072906494140625;-7.14111328125E-06
2;456;7.68795098058979;-0.07830810546875;-6.93359375E-06
2;457;7.69067098058292;-0.083709716796875;-6.744384765625E-06
2;458;7.69339098057606;-0.089111328125;-6.561279296875E-06
2;459;7.69611098056919;-0.094512939453125;-6.38427734375E-06
2;460;7.69883098056232;-0.09991455078125;-6.2225341796875E-06
2;461;7.70155098055545;-0.105316162109375;-6.072998046875E-06
2;462;7.70427098054859;-0.110748291015625;-5.9173583984375E-06
2;463;7.70699098054172;-0.116119384765625;-5.780029296875E-06
2;464;7.70971098053485;-0.121490478515625;-5.65185546875E-06
2;465;7.71243098052798;-0.126922607421875;-5.517578125E-06
2;466;7.71515098052112;-0.13226318359375;-5.4046630859375E-06
2;467;7.71787098051425;-0.1376953125;-5.291748046875E-06
2;468;7.72059098050738;-0.14306640625;-5.181884765625E-06
2;469;7.72331098050051;-0.1484375;-5.0811767578125E-06
2;470;7.72603098049365;-0.153839111328125;-4.98046875E-06
2;471;7.72875098048678;-0.15924072265625;-4.881591796875E-06
2;472;7.73147098047991;-0.16461181640625;-4.7918701171875E-06
2;473;7.73419098047304;-0.1700439453125;-4.705810546875E-06
2;474;7.73691098046618;-0.1754150390625;-4.61883544921875E-06
2;475;7.73963098045931;-0.1807861328125;-4.54376220703125E-06
2;476;7.74235098045244;-0.186187744140625;-4.4635009765625E-06
2;477;7.74507098044558;-0.191619873046875;-4.3829345703125E-06
2;478;7.74779098043871;-0.19696044921875;-4.3182373046875E-06
2;479;7.75051098043184;-0.202392578125;-4.25048828125E-06
2;480;7.75323098042497;-0.207794189453125;-4.183349609375E-06
2;481;7.75595098041811;-0.213165283203125;-4.11895751953125E-06
2;482;7.75867098041124;-0.218536376953125;-4.0545654296875E-06
2;483;7.76139098040437;-0.223968505859375;-3.99658203125E-06
2;484;7.7641109803975;-0.2293701171875;-3.94195556640625E-06
2;485;7.76683098039064;-0.2347412109375;-3.875732421875E-06
2;486;7.76955098038377;-0.240142822265625;-3.82965087890625E-06
2;487;7.7722709803769;-0.24554443359375;-3.7750244140625E-06
2;488;7.77499098037003;-0.25091552734375;-3.71856689453125E-06
2;489;7.77771098036317;-0.256317138671875;-3.6767578125E-06
2;490;7.7804309803563;-0.26171875;-3.6297607421875E-06
2;491;7.78315098034943;-0.26708984375;-3.57818603515625E-06
2;492;7.78587098034257;-0.272491455078125;-3.53607177734375E-06
2;493;7.7885909803357;-0.277862548828125;-3.4942626953125E-06
2;494;7.79131098032883;-0.283294677734375;-3.45184326171875E-06
2;495;7.79403098032196;-0.2886962890625;-3.4075927734375E-06
2;496;7.7967509803151;-0.2940673828125;-3.3740234375E-06
2;497;7.79947098030823;-0.2994384765625;-3.1488037109375E-06
2;498;7.80219098030136;-0.295135498046875;-3.00933837890625E-06
2;499;7.80491098029449;-0.289764404296875;-2.9510498046875E-06
2;500;7.80763098028763;-0.284393310546875;-2.90374755859375E-06
2;501;7.81035098028076;-0.278961181640625;-2.86376953125E-06
2;502;7.81307098027389;-0.2735595703125;-2.81951904296875E-06
2;503;7.81579098026702;-0.2681884765625;-2.77740478515625E-06
2;504;7.81851098026016;-0.262786865234375;-2.73590087890625E-06
2;505;7.82123098025329;-0.25738525390625;-2.70477294921875E-06
2;506;7.82395098024642;-0.25201416015625;-2.66693115234375E-06
2;507;7.82667098023956;-0.24658203125;-2.630615234375E-06
2;508;7.82939098023269;-0.2412109375;-2.5927734375E-06
2;509;7.83211098022582;-0.23577880859375;-2.5677490234375E-06
2;510;7.83483098021895;-0.23040771484375;-2.53082275390625E-06
2;511;7.83755098021209;-0.22503662109375;-2.49664306640625E-06
2;512;7.84027098020522;-0.2196044921875;-2.4700927734375E-06
2;513;7.84299098019835;-0.2142333984375;-2.43896484375E-06
2;514;7.84571098019148;-0.208831787109375;-2.41058349609375E-06
2;515;7.84843098018462;-0.203399658203125;-2.3797607421875E-06
2;516;7.85115098017775;-0.198028564453125;-2.35260009765625E-06
3;517;7.85387098017088;-0.192626953125;-2.3291015625E-06
3;518;7.85659098016401;-0.187225341796875;-2.29827880859375E-06
3;519;7.85931098015715;-0.181854248046875;-2.27142333984375E-06
3;520;7.86203098015028;-0.176483154296875;-2.247314453125E-06
3;521;7.86475098014341;-0.171051025390625;-2.2210693359375E-06
3;522;7.86747098013655;-0.165679931640625;-2.19757080078125E-06
3;523;7.87019098012968;-0.160308837890625;-2.16796875E-06
3;524;7.87291098012281;-0.15484619140625;-2.1453857421875E-06
3;525;7.87563098011594;-0.149505615234375;-2.12432861328125E-06
3;526;7.87835098010908;-0.14410400390625;-2.10418701171875E-06
3;527;7.88107098010221;-0.138702392578125;-2.0745849609375E-06
3;528;7.88379098009534;-0.133331298828125;-2.047119140625E-06
3;529;7.88651098008847;-0.1279296875;-2.02606201171875E-06
3;530;7.88923098008161;-0.12249755859375;-2.000732421875E-06
3;531;7.89195098007474;-0.11712646484375;-1.9775390625E-06
3;532;7.89467098006787;-0.11175537109375;-1.9586181640625E-06
3;533;7.897390980061;-0.106353759765625;-1.93450927734375E-06
3;534;7.90011098005414;-0.100982666015625;-1.90460205078125E-06
3;535;7.90283098004727;-0.0955810546875;-1.87835693359375E-06
3;536;7.9055509800404;-0.090179443359375;-1.854248046875E-06
3;537;7.90827098003354;-0.084808349609375;-1.82220458984375E-06
3;538;7.91099098002667;-0.07940673828125;-1.79046630859375E-06
3;539;7.9137109800198;-0.074005126953125;-1.7547607421875E-06
3;540;7.91643098001293;-0.068634033203125;-1.71630859375E-06
3;541;7.91915098000607;-0.063232421875;-1.67694091796875E-06
3;542;7.9218709799992;-0.057830810546875;-1.6326904296875E-06
3;543;7.92459097999233;-0.052459716796875;-1.5789794921875E-06
3;544;7.92731097998546;-0.0471343994140625;-1.51947021484375E-06
3;545;7.9300309799786;-0.041729736328125;-1.4581298828125E-06
3;546;7.93275097997173;-0.0363525390625;-1.37115478515625E-06
3;547;7.93547097996486;-0.0309478759765625;-1.28143310546875E-06
3;548;7.93819097995799;-0.0255767822265625;-1.16912841796875E-06
3;549;7.94091097995113;-0.020184326171875;-1.04339599609375E-06
3;550;7.94363097994426;-0.0147796630859375;-8.85009765625E-07
3;551;7.94635097993739;-0.00940856933593751;-7.0068359375E-07
3;552;7.94907097993053;-0.004010009765625;-4.791259765625E-07
3;553;7.95179097992366;0.001385498046875;-2.25616455078125E-07
3;554;7.95451097991679;0.00676574707031249;7.574462890625E-08
3;555;7.95723097990992;0.0121307373046875;4.3475341796875E-07
3;556;7.95995097990306;0.01751708984375;8.6456298828125E-07
3;557;7.96267097989619;0.0228912353515625;1.35833740234375E-06
3;558;7.96539097988932;0.02828369140625;1.920166015625E-06
3;559;7.96811097988245;0.03363037109375;2.56622314453125E-06
3;560;7.97083097987559;0.0389892578125;3.3160400390625E-06
3;561;7.97355097986872;0.044464111328125;4.136962890625E-06
3;562;7.97627097986185;0.049835205078125;5.0445556640625E-06
3;563;7.97899097985498;0.055328369140625;6.0546875E-06
3;564;7.98171097984812;0.060760498046875;7.1319580078125E-06
3;565;7.98443097984125;0.06610107421875;8.2733154296875E-06
3;566;7.98715097983438;0.071502685546875;9.478759765625E-06
3;567;7.98987097982751;0.076904296875;1.0723876953125E-05
3;568;7.99259097982065;0.082275390625;1.19720458984375E-05
3;569;7.99531097981378;0.087646484375;1.32354736328125E-05
3;570;7.99803097980691;0.09307861328125;1.444091796875E-05
3;571;8.00075097980005;0.09844970703125;1.5576171875E-05
3;572;8.00347097979318;0.1038818359375;1.6607666015625E-05
3;573;8.00619097978631;0.109283447265625;1.7529296875E-05
3;574;8.00891097977944;0.114654541015625;1.83197021484375E-05
3;575;8.01163097977258;0.12005615234375;1.89361572265625E-05
3;576;8.01435097976571;0.12548828125;1.93695068359375E-05
3;577;8.01707097975884;0.130828857421875;1.961669921875E-05
3;578;8.01979097975197;0.13623046875;1.968994140625E-05
3;579;8.02251097974511;0.14166259765625;1.96014404296875E-05
3;580;8.02523097973824;0.14703369140625;1.9342041015625E-05
3;581;8.02795097973137;0.15240478515625;1.89910888671875E-05
3;582;8.0306709797245;0.157806396484375;1.85394287109375E-05
3;583;8.03339097971764;0.163238525390625;1.8017578125E-05
3;584;8.03611097971077;0.168609619140625;1.7474365234375E-05
3;585;8.0388309797039;0.17401123046875;1.69036865234375E-05
3;586;8.04155097969704;0.17938232421875;1.63421630859375E-05
3;587;8.04427097969017;0.184783935546875;1.5802001953125E-05
3;588;8.0469909796833;0.190216064453125;1.52679443359375E-05
3;589;8.04971097967643;0.195556640625;1.47796630859375E-05
3;590;8.05243097966957;0.200958251953125;1.4300537109375E-05
3;591;8.0551509796627;0.206329345703125;1.38671875E-05
3;592;8.05787097965583;0.211761474609375;1.34490966796875E-05
3;593;8.06059097964896;0.2171630859375;1.30645751953125E-05
3;594;8.0633109796421;0.2225341796875;1.2713623046875E-05
3;595;8.06603097963523;0.2279052734375;1.23687744140625E-05
3;596;8.06875097962836;0.23333740234375;1.20574951171875E-05
3;597;8.07147097962149;0.23870849609375;1.17706298828125E-05
3;598;8.07419097961463;0.24407958984375;1.15020751953125E-05
3;599;8.07691097960776;0.249481201171875;1.1248779296875E-05
3;600;8.07963097960089;0.2548828125;1.10107421875E-05
3;601;8.08235097959403;0.260284423828125;1.07940673828125E-05
3;602;8.08507097958716;0.265655517578125;1.05865478515625E-05
3;603;8.08779097958029;0.27105712890625;1.03851318359375E-05
3;604;8.09051097957342;0.27642822265625;1.0198974609375E-05
3;605;8.09323097956656;0.281829833984375;1.00250244140625E-05
3;606;8.09595097955969;0.2872314453125;9.87548828125E-06
3;607;8.09867097955282;0.2926025390625;9.7076416015625E-06
3;608;8.10139097954595;0.29803466796875;9.564208984375E-06
3;609;8.10411097953909;0.30340576171875;9.4268798828125E-06
3;610;8.10683097953222;0.30877685546875;9.2926025390625E-06
3;611;8.10955097952535;0.314178466796875;9.1644287109375E-06
3;612;8.11227097951848;0.319580078125;9.04541015625E-06
3;613;8.11499097951162;0.324951171875;8.92333984375E-06
3;614;8.11771097950475;0.330352783203125;8.8165283203125E-06
3;615;8.12043097949788;0.33575439453125;8.7066650390625E-06
3;616;8.12315097949102;0.34112548828125;8.6151123046875E-06
3;617;8.12587097948415;0.346527099609375;8.5235595703125E-06
3;618;8.12859097947728;0.3519287109375;8.416748046875E-06
3;619;8.13131097947041;0.3572998046875;8.331298828125E-06
3;620;8.13403097946355;0.3626708984375;8.2427978515625E-06
3;621;8.13675097945668;0.368072509765625;8.1512451171875E-06
3;622;8.13947097944981;0.37347412109375;8.0810546875E-06
3;623;8.14219097944294;0.37890625;7.9925537109375E-06
3;624;8.14491097943608;0.384246826171875;7.92236328125E-06
3;625;8.14763097942921;0.389678955078125;7.8521728515625E-06
3;626;8.15035097942234;0.394134521484375;7.4615478515625E-06
3;627;8.15307097941547;0.388763427734375;7.366943359375E-06
3;628;8.15579097940861;0.38336181640625;7.2784423828125E-06
3;629;8.15851097940174;0.377960205078125;7.196044921875E-06
3;630;8.16123097939487;0.372589111328125;7.12890625E-06
3;631;8.16395097938801;0.3671875;7.0526123046875E-06
3;632;8.16667097938114;0.36175537109375;6.9793701171875E-06
3;633;8.16939097937427;0.35638427734375;6.9183349609375E-06
3;634;8.1721109793674;0.35101318359375;6.854248046875E-06
3;635;8.17483097936054;0.3455810546875;6.7901611328125E-06
3;636;8.17755097935367;0.3402099609375;6.7352294921875E-06
3;637;8.1802709793468;0.334808349609375;6.6741943359375E-06
3;638;8.18299097933993;0.32940673828125;6.6131591796875E-06
3;639;8.18571097933307;0.32403564453125;6.5704345703125E-06
3;640;8.1884309793262;0.318603515625;6.5093994140625E-06
3;641;8.19115097931933;0.313232421875;6.4605712890625E-06
3;642;8.19387097931246;0.307861328125;6.40869140625E-06
3;643;8.1965909793056;0.30242919921875;6.35986328125E-06
3;644;8.19931097929873;0.29705810546875;6.3140869140625E-06
3;645;8.20203097929186;0.29168701171875;6.2530517578125E-06
3;646;8.204750979285;0.2862548828125;6.201171875E-06
3;647;8.20747097927813;0.280853271484375;6.1492919921875E-06
3;648;8.21019097927126;0.275482177734375;6.1004638671875E-06
3;649;8.21291097926439;0.27008056640625;6.04248046875E-06
3;650;8.21563097925753;0.264678955078125;5.9967041015625E-06
3;651;8.21835097925066;0.259307861328125;5.938720703125E-06
3;652;8.22107097924379;0.25390625;5.8746337890625E-06
3;653;8.22379097923692;0.24853515625;5.82275390625E-06
3;654;8.22651097923006;0.243133544921875;5.755615234375E-06
3;655;8.22923097922319;0.23773193359375;5.6854248046875E-06
3;656;8.23195097921632;0.232330322265625;5.609130859375E-06
3;657;8.23467097920945;0.226959228515625;5.5206298828125E-06
3;658;8.23739097920259;0.2215576171875;5.426025390625E-06
3;659;8.24011097919572;0.2161865234375;5.3131103515625E-06
3;660;8.24283097918885;0.210784912109375;5.1910400390625E-06
3;661;8.24555097918199;0.20538330078125;5.04150390625E-06
3;662;8.24827097917512;0.199981689453125;4.8724365234375E-06
3;663;8.25099097916825;0.194610595703125;4.68017578125E-06
3;664;8.25371097916138;0.189178466796875;4.45068359375E-06
3;665;8.25643097915452;0.183807373046875;4.1851806640625E-06
3;666;8.25915097914765;0.17840576171875;3.873291015625E-06
3;667;8.26187097914078;0.17303466796875;3.504638671875E-06
3;668;8.26459097913391;0.16766357421875;3.08258056640625E-06
3;669;8.26731097912705;0.162261962890625;2.579345703125E-06
3;670;8.27003097912018;0.1568603515625;2.00927734375E-06
3;671;8.27275097911331;0.151458740234375;1.36505126953125E-06
3;672;8.27547097910644;0.146087646484375;6.3873291015625E-07
3;673;8.27819097909958;0.140655517578125;-1.82647705078125E-07
3;674;8.28091097909271;0.135284423828125;-1.11053466796875E-06
3;675;8.28363097908584;0.129913330078125;-2.1051025390625E-06
3;676;8.28635097907897;0.124481201171875;-3.19122314453125E-06
3;677;8.28907097907211;0.119110107421875;-4.33868408203125E-06
3;678;8.29179097906524;0.113739013671875;-5.560302734375E-06
3;679;8.29451097905837;0.108306884765625;-6.8115234375E-06
3;680;8.29723097905151;0.10296630859375;-8.0810546875E-06
3;681;8.29995097904464;0.09759521484375;-9.33837890625E-06
3;682;8.30267097903777;0.0921630859375;-1.05804443359375E-05
3;683;8.3053909790309;0.086822509765625;-1.175537109375E-05
3;684;8.30811097902404;0.081390380859375;-1.28265380859375E-05
3;685;8.31083097901717;0.076019287109375;-1.3787841796875E-05
3;686;8.3135509790103;0.07061767578125;-1.461181640625E-05
3;687;8.31627097900343;0.06524658203125;-1.5252685546875E-05
3;688;8.31899097899657;0.059844970703125;-1.572265625E-05
3;689;8.3217109789897;0.054443359375;-1.600341796875E-05
3;690;8.32443097898283;0.0490631103515625;-1.61163330078125E-05
3;691;8.32715097897596;0.0436737060546875;-1.60552978515625E-05
3;692;8.3298709789691;0.038250732421875;-1.58355712890625E-05
3;693;8.33259097896223;0.032891845703125;-1.5496826171875E-05
3;694;8.33531097895536;0.027490234375;-1.505126953125E-05
3;695;8.3380309789485;0.022076416015625;-1.455078125E-05
3;696;8.34075097894163;0.0167083740234375;-1.39984130859375E-05
3;697;8.34347097893476;0.01131591796875;-1.34429931640625E-05
3;698;8.34619097892789;0.00591430664062501;-1.2872314453125E-05
3;699;8.34891097892103;0.000518798828125;-1.23260498046875E-05
3;700;8.35163097891416;-0.00485839843749999;-1.1798095703125E-05
3;701;8.35435097890729;-0.0102752685546875;-1.129150390625E-05
3;702;8.35707097890042;-0.015655517578125;-1.08245849609375E-05
3;703;8.35979097889356;-0.021038818359375;-1.03729248046875E-05
3;704;8.36251097888669;-0.0264495849609375;-9.954833984375E-06
3;705;8.36523097887982;-0.0318450927734375;-9.5672607421875E-06
3;706;8.36795097887295;-0.037225341796875;-9.21630859375E-06
3;707;8.37067097886609;-0.042626953125;-8.8775634765625E-06
3;708;8.37339097885922;-0.04801025390625;-8.563232421875E-06
3;709;8.37611097885235;-0.05340576171875;-8.282470703125E-06
3;710;8.37883097884549;-0.058837890625;-8.0047607421875E-06
3;711;8.38155097883862;-0.064208984375;-7.7606201171875E-06
3;712;8.38427097883175;-0.069610595703125;-7.525634765625E-06
3;713;8.38699097882488;-0.07501220703125;-7.2998046875E-06
3;714;8.38971097881802;-0.08038330078125;-7.0953369140625E-06
3;715;8.39243097881115;-0.085784912109375;-6.9091796875E-06
3;716;8.39515097880428;-0.0911865234375;-6.7230224609375E-06
3;717;8.39787097879741;-0.096588134765625;-6.5582275390625E-06
3;718;8.40059097879055;-0.10198974609375;-6.3934326171875E-06
3;719;8.40331097878368;-0.107421875;-6.2347412109375E-06
3;720;8.40603097877681;-0.112762451171875;-6.1004638671875E-06
3;721;8.40875097876994;-0.118194580078125;-5.95703125E-06
3;722;8.41147097876308;-0.12353515625;-5.8258056640625E-06
3;723;8.41419097875621;-0.12896728515625;-5.706787109375E-06
3;724;8.41691097874934;-0.134368896484375;-5.5877685546875E-06
3;725;8.41963097874248;-0.139739990234375;-5.4779052734375E-06
3;726;8.42235097873561;-0.1451416015625;-5.3619384765625E-06
3;727;8.42507097872874;-0.150543212890625;-5.2642822265625E-06
3;728;8.42779097872187;-0.155914306640625;-5.1666259765625E-06
3;729;8.43051097871501;-0.161346435546875;-5.0750732421875E-06
3;730;8.43323097870814;-0.166717529296875;-4.9835205078125E-06
3;731;8.43595097870127;-0.172119140625;-4.89013671875E-06
3;732;8.4386709786944;-0.177520751953125;-4.81048583984375E-06
3;733;8.44139097868754;-0.182861328125;-4.73175048828125E-06
3;734;8.44411097868067;-0.188262939453125;-4.6563720703125E-06
3;735;8.4468309786738;-0.193695068359375;-4.5782470703125E-06
3;736;8.44955097866693;-0.199066162109375;-4.51141357421875E-06
3;737;8.45227097866007;-0.204437255859375;-4.4439697265625E-06
3;738;8.4549909786532;-0.209869384765625;-4.3768310546875E-06
3;739;8.45771097864633;-0.215240478515625;-4.3133544921875E-06
3;740;8.46043097863947;-0.22064208984375;-4.2498779296875E-06
3;741;8.4631509786326;-0.22607421875;-4.18853759765625E-06
3;742;8.46587097862573;-0.231475830078125;-4.129638671875E-06
3;743;8.46859097861886;-0.236846923828125;-4.072265625E-06
3;744;8.471310978612;-0.242279052734375;-4.02130126953125E-06
3;745;8.47403097860513;-0.247650146484375;-3.96942138671875E-06
3;746;8.47675097859826;-0.2530517578125;-3.91937255859375E-06
3;747;8.47947097859139;-0.2584228515625;-3.87237548828125E-06
3;748;8.48219097858453;-0.263824462890625;-3.8226318359375E-06
3;749;8.48491097857766;-0.26922607421875;-3.77471923828125E-06
3;750;8.48763097857079;-0.274627685546875;-3.73138427734375E-06
3;751;8.49035097856392;-0.279998779296875;-3.6865234375E-06
3;752;8.49307097855706;-0.285369873046875;-3.648681640625E-06
3;753;8.49579097855019;-0.290802001953125;-3.60595703125E-06
3;754;8.49851097854332;-0.29620361328125;-3.56903076171875E-06
3;755;8.50123097853646;-0.299163818359375;-3.2647705078125E-06
3;756;8.50395097852959;-0.29376220703125;-3.1939697265625E-06
3;757;8.50667097852272;-0.28839111328125;-3.148193359375E-06
3;758;8.50939097851585;-0.282989501953125;-3.09844970703125E-06
3;759;8.51211097850899;-0.277557373046875;-3.05328369140625E-06
3;760;8.51483097850212;-0.272186279296875;-3.00506591796875E-06
3;761;8.51755097849525;-0.26678466796875;-2.96630859375E-06
3;762;8.52027097848838;-0.261383056640625;-2.92877197265625E-06
3;763;8.52299097848152;-0.256011962890625;-2.8875732421875E-06
3;764;8.52571097847465;-0.250579833984375;-2.85400390625E-06
3;765;8.52843097846778;-0.245208740234375;-2.82196044921875E-06
3;766;8.53115097846091;-0.239837646484375;-2.78411865234375E-06
3;767;8.53387097845405;-0.234405517578125;-2.74993896484375E-06
3;768;8.53659097844718;-0.22900390625;-2.71484375E-06
3;769;8.53931097844031;-0.2236328125;-2.691650390625E-06
3;770;8.54203097843344;-0.21820068359375;-2.6568603515625E-06
3;771;8.54475097842658;-0.212799072265625;-2.62451171875E-06
3;772;8.54747097841971;-0.20745849609375;-2.59735107421875E-06
3;773;8.55019097841284;-0.2020263671875;-2.56622314453125E-06
